Altitude                 Rho                      Temperture               Pressure                 SpeedOfSound             
0.000000                 1.226614                 288.140000               101400.930905            340.256744               
1.000000                 1.226731                 288.146490               101412.935824            340.260576               
2.000000                 1.226849                 288.152980               101424.941895            340.264408               
3.000000                 1.226967                 288.159470               101436.949116            340.268240               
4.000000                 1.227084                 288.165960               101448.957489            340.272072               
5.000000                 1.227202                 288.172450               101460.967012            340.275903               
6.000000                 1.227319                 288.178940               101472.977687            340.279735               
7.000000                 1.227437                 288.185430               101484.989513            340.283567               
8.000000                 1.227555                 288.191920               101497.002490            340.287398               
9.000000                 1.227672                 288.198410               101509.016619            340.291230               
10.000000                1.227790                 288.204900               101521.031899            340.295061               
11.000000                1.227908                 288.211390               101533.048331            340.298893               
12.000000                1.228025                 288.217880               101545.065915            340.302724               
13.000000                1.228143                 288.224370               101557.084650            340.306556               
14.000000                1.228261                 288.230860               101569.104537            340.310387               
15.000000                1.228379                 288.237350               101581.125576            340.314218               
16.000000                1.228496                 288.243840               101593.147767            340.318050               
17.000000                1.228614                 288.250330               101605.171110            340.321881               
18.000000                1.228732                 288.256820               101617.195606            340.325712               
19.000000                1.228849                 288.263310               101629.221253            340.329543               
20.000000                1.228967                 288.269800               101641.248053            340.333374               
21.000000                1.229085                 288.276290               101653.276006            340.337205               
22.000000                1.229203                 288.282780               101665.305111            340.341036               
23.000000                1.229321                 288.289270               101677.335368            340.344867               
24.000000                1.229438                 288.295760               101689.366779            340.348698               
25.000000                1.229556                 288.302250               101701.399342            340.352529               
26.000000                1.229674                 288.308740               101713.433058            340.356360               
27.000000                1.229792                 288.315230               101725.467927            340.360191               
28.000000                1.229910                 288.321720               101737.503948            340.364021               
29.000000                1.230027                 288.328210               101749.541123            340.367852               
30.000000                1.230145                 288.334700               101761.579452            340.371683               
31.000000                1.230263                 288.341190               101773.618933            340.375513               
32.000000                1.230381                 288.347680               101785.659568            340.379344               
33.000000                1.230499                 288.354170               101797.701356            340.383175               
34.000000                1.230617                 288.360660               101809.744298            340.387005               
35.000000                1.230735                 288.367150               101821.788394            340.390835               
36.000000                1.230852                 288.373640               101833.833643            340.394666               
37.000000                1.230970                 288.380130               101845.880046            340.398496               
38.000000                1.231088                 288.386620               101857.927603            340.402327               
39.000000                1.231206                 288.393110               101869.976313            340.406157               
40.000000                1.231324                 288.399600               101882.026178            340.409987               
41.000000                1.231442                 288.406090               101894.077197            340.413817               
42.000000                1.231560                 288.412580               101906.129370            340.417647               
43.000000                1.231678                 288.419070               101918.182698            340.421477               
44.000000                1.231796                 288.425560               101930.237180            340.425308               
45.000000                1.231914                 288.432050               101942.292816            340.429138               
46.000000                1.232032                 288.438540               101954.349607            340.432968               
47.000000                1.232150                 288.445030               101966.407553            340.436797               
48.000000                1.232268                 288.451520               101978.466653            340.440627               
49.000000                1.232386                 288.458010               101990.526908            340.444457               
50.000000                1.232504                 288.464500               102002.588318            340.448287               
51.000000                1.232622                 288.470990               102014.650883            340.452117               
52.000000                1.232740                 288.477480               102026.714603            340.455946               
53.000000                1.232858                 288.483970               102038.779478            340.459776               
54.000000                1.232976                 288.490460               102050.845508            340.463606               
55.000000                1.233094                 288.496950               102062.912694            340.467435               
56.000000                1.233212                 288.503440               102074.981035            340.471265               
57.000000                1.233330                 288.509930               102087.050531            340.475094               
58.000000                1.233448                 288.516420               102099.121184            340.478924               
59.000000                1.233566                 288.522910               102111.192991            340.482753               
60.000000                1.233684                 288.529400               102123.265955            340.486583               
61.000000                1.233803                 288.535890               102135.340074            340.490412               
62.000000                1.233921                 288.542380               102147.415349            340.494241               
63.000000                1.234039                 288.548870               102159.491781            340.498070               
64.000000                1.234157                 288.555360               102171.569368            340.501900               
65.000000                1.234275                 288.561850               102183.648111            340.505729               
66.000000                1.234393                 288.568340               102195.728011            340.509558               
67.000000                1.234511                 288.574830               102207.809067            340.513387               
68.000000                1.234630                 288.581320               102219.891280            340.517216               
69.000000                1.234748                 288.587810               102231.974649            340.521045               
70.000000                1.234866                 288.594300               102244.059174            340.524874               
71.000000                1.234984                 288.600790               102256.144856            340.528703               
72.000000                1.235102                 288.607280               102268.231695            340.532532               
73.000000                1.235220                 288.613770               102280.319691            340.536360               
74.000000                1.235339                 288.620260               102292.408844            340.540189               
75.000000                1.235457                 288.626750               102304.499154            340.544018               
76.000000                1.235575                 288.633240               102316.590620            340.547847               
77.000000                1.235693                 288.639730               102328.683244            340.551675               
78.000000                1.235812                 288.646220               102340.777026            340.555504               
79.000000                1.235930                 288.652710               102352.871964            340.559332               
80.000000                1.236048                 288.659200               102364.968060            340.563161               
81.000000                1.236166                 288.665690               102377.065314            340.566989               
82.000000                1.236285                 288.672180               102389.163725            340.570818               
83.000000                1.236403                 288.678670               102401.263294            340.574646               
84.000000                1.236521                 288.685160               102413.364021            340.578474               
85.000000                1.236640                 288.691650               102425.465905            340.582303               
86.000000                1.236758                 288.698140               102437.568947            340.586131               
87.000000                1.236876                 288.704630               102449.673148            340.589959               
88.000000                1.236995                 288.711120               102461.778506            340.593787               
89.000000                1.237113                 288.717610               102473.885023            340.597616               
90.000000                1.237231                 288.724100               102485.992698            340.601444               
91.000000                1.237350                 288.730590               102498.101532            340.605272               
92.000000                1.237468                 288.737080               102510.211523            340.609100               
93.000000                1.237587                 288.743570               102522.322674            340.612928               
94.000000                1.237705                 288.750060               102534.434983            340.616755               
95.000000                1.237823                 288.756550               102546.548450            340.620583               
96.000000                1.237942                 288.763040               102558.663077            340.624411               
97.000000                1.238060                 288.769530               102570.778862            340.628239               
98.000000                1.238179                 288.776020               102582.895806            340.632067               
99.000000                1.238297                 288.782510               102595.013910            340.635894               
100.000000               1.238415                 288.789000               102607.133172            340.639722               
101.000000               1.238534                 288.795490               102619.253594            340.643550               
102.000000               1.238652                 288.801980               102631.375175            340.647377               
103.000000               1.238771                 288.808470               102643.497915            340.651205               
104.000000               1.238889                 288.814960               102655.621815            340.655032               
105.000000               1.239008                 288.821450               102667.746874            340.658860               
106.000000               1.239126                 288.827940               102679.873093            340.662687               
107.000000               1.239245                 288.834430               102692.000472            340.666514               
108.000000               1.239363                 288.840920               102704.129011            340.670342               
109.000000               1.239482                 288.847410               102716.258709            340.674169               
110.000000               1.239600                 288.853900               102728.389568            340.677996               
111.000000               1.239719                 288.860390               102740.521586            340.681823               
112.000000               1.239837                 288.866880               102752.654765            340.685650               
113.000000               1.239956                 288.873370               102764.789103            340.689477               
114.000000               1.240075                 288.879860               102776.924603            340.693305               
115.000000               1.240193                 288.886350               102789.061262            340.697132               
116.000000               1.240312                 288.892840               102801.199082            340.700958               
117.000000               1.240430                 288.899330               102813.338063            340.704785               
118.000000               1.240549                 288.905820               102825.478204            340.708612               
119.000000               1.240668                 288.912310               102837.619506            340.712439               
120.000000               1.240786                 288.918800               102849.761969            340.716266               
121.000000               1.240905                 288.925290               102861.905592            340.720093               
122.000000               1.241023                 288.931780               102874.050377            340.723919               
123.000000               1.241142                 288.938270               102886.196323            340.727746               
124.000000               1.241261                 288.944760               102898.343430            340.731573               
125.000000               1.241379                 288.951250               102910.491698            340.735399               
126.000000               1.241498                 288.957740               102922.641128            340.739226               
127.000000               1.241617                 288.964230               102934.791719            340.743052               
128.000000               1.241735                 288.970720               102946.943471            340.746879               
129.000000               1.241854                 288.977210               102959.096385            340.750705               
130.000000               1.241973                 288.983700               102971.250461            340.754531               
131.000000               1.242092                 288.990190               102983.405698            340.758358               
132.000000               1.242210                 288.996680               102995.562098            340.762184               
133.000000               1.242329                 289.003170               103007.719659            340.766010               
134.000000               1.242448                 289.009660               103019.878382            340.769836               
135.000000               1.242566                 289.016150               103032.038267            340.773663               
136.000000               1.242685                 289.022640               103044.199315            340.777489               
137.000000               1.242804                 289.029130               103056.361525            340.781315               
138.000000               1.242923                 289.035620               103068.524897            340.785141               
139.000000               1.243042                 289.042110               103080.689432            340.788967               
140.000000               1.243160                 289.048600               103092.855129            340.792793               
141.000000               1.243279                 289.055090               103105.021988            340.796618               
142.000000               1.243398                 289.061580               103117.190011            340.800444               
143.000000               1.243517                 289.068070               103129.359196            340.804270               
144.000000               1.243636                 289.074560               103141.529544            340.808096               
145.000000               1.243754                 289.081050               103153.701055            340.811922               
146.000000               1.243873                 289.087540               103165.873729            340.815747               
147.000000               1.243992                 289.094030               103178.047566            340.819573               
148.000000               1.244111                 289.100520               103190.222567            340.823398               
149.000000               1.244230                 289.107010               103202.398730            340.827224               
150.000000               1.244349                 289.113500               103214.576057            340.831049               
151.000000               1.244468                 289.119990               103226.754548            340.834875               
152.000000               1.244587                 289.126480               103238.934202            340.838700               
153.000000               1.244705                 289.132970               103251.115020            340.842526               
154.000000               1.244824                 289.139460               103263.297001            340.846351               
155.000000               1.244943                 289.145950               103275.480146            340.850176               
156.000000               1.245062                 289.152440               103287.664455            340.854002               
