Altitude                 Rho                      Temperture               Pressure                 SpeedOfSound             
-10000.000000            0.414008                 223.240000               26516.205635             299.495963               
-9999.000000             0.414059                 223.246490               26520.257606             299.500317               
-9998.000000             0.414111                 223.252980               26524.310078             299.504670               
-9997.000000             0.414162                 223.259470               26528.363051             299.509023               
-9996.000000             0.414213                 223.265960               26532.416526             299.513377               
-9995.000000             0.414264                 223.272450               26536.470502             299.517730               
-9994.000000             0.414316                 223.278940               26540.524980             299.522083               
-9993.000000             0.414367                 223.285430               26544.579960             299.526436               
-9992.000000             0.414418                 223.291920               26548.635441             299.530789               
-9991.000000             0.414469                 223.298410               26552.691424             299.535142               
-9990.000000             0.414521                 223.304900               26556.747908             299.539495               
-9989.000000             0.414572                 223.311390               26560.804895             299.543847               
-9988.000000             0.414623                 223.317880               26564.862383             299.548200               
-9987.000000             0.414674                 223.324370               26568.920373             299.552553               
-9986.000000             0.414726                 223.330860               26572.978865             299.556905               
-9985.000000             0.414777                 223.337350               26577.037859             299.561258               
-9984.000000             0.414828                 223.343840               26581.097355             299.565610               
-9983.000000             0.414880                 223.350330               26585.157353             299.569963               
-9982.000000             0.414931                 223.356820               26589.217854             299.574315               
-9981.000000             0.414982                 223.363310               26593.278856             299.578667               
-9980.000000             0.415034                 223.369800               26597.340361             299.583020               
-9979.000000             0.415085                 223.376290               26601.402368             299.587372               
-9978.000000             0.415136                 223.382780               26605.464877             299.591724               
-9977.000000             0.415188                 223.389270               26609.527889             299.596076               
-9976.000000             0.415239                 223.395760               26613.591403             299.600428               
-9975.000000             0.415290                 223.402250               26617.655419             299.604780               
-9974.000000             0.415342                 223.408740               26621.719938             299.609132               
-9973.000000             0.415393                 223.415230               26625.784960             299.613483               
-9972.000000             0.415444                 223.421720               26629.850484             299.617835               
-9971.000000             0.415496                 223.428210               26633.916511             299.622187               
-9970.000000             0.415547                 223.434700               26637.983040             299.626538               
-9969.000000             0.415598                 223.441190               26642.050072             299.630890               
-9968.000000             0.415650                 223.447680               26646.117607             299.635241               
-9967.000000             0.415701                 223.454170               26650.185645             299.639593               
-9966.000000             0.415753                 223.460660               26654.254186             299.643944               
-9965.000000             0.415804                 223.467150               26658.323230             299.648295               
-9964.000000             0.415855                 223.473640               26662.392776             299.652646               
-9963.000000             0.415907                 223.480130               26666.462826             299.656998               
-9962.000000             0.415958                 223.486620               26670.533379             299.661349               
-9961.000000             0.416010                 223.493110               26674.604435             299.665700               
-9960.000000             0.416061                 223.499600               26678.675994             299.670051               
-9959.000000             0.416112                 223.506090               26682.748056             299.674402               
-9958.000000             0.416164                 223.512580               26686.820621             299.678752               
-9957.000000             0.416215                 223.519070               26690.893690             299.683103               
-9956.000000             0.416267                 223.525560               26694.967263             299.687454               
-9955.000000             0.416318                 223.532050               26699.041338             299.691805               
-9954.000000             0.416370                 223.538540               26703.115917             299.696155               
-9953.000000             0.416421                 223.545030               26707.191000             299.700506               
-9952.000000             0.416472                 223.551520               26711.266586             299.704856               
-9951.000000             0.416524                 223.558010               26715.342676             299.709206               
-9950.000000             0.416575                 223.564500               26719.419269             299.713557               
-9949.000000             0.416627                 223.570990               26723.496366             299.717907               
-9948.000000             0.416678                 223.577480               26727.573967             299.722257               
-9947.000000             0.416730                 223.583970               26731.652072             299.726607               
-9946.000000             0.416781                 223.590460               26735.730680             299.730957               
-9945.000000             0.416833                 223.596950               26739.809793             299.735307               
-9944.000000             0.416884                 223.603440               26743.889409             299.739657               
-9943.000000             0.416936                 223.609930               26747.969529             299.744007               
-9942.000000             0.416987                 223.616420               26752.050153             299.748357               
-9941.000000             0.417039                 223.622910               26756.131282             299.752707               
-9940.000000             0.417090                 223.629400               26760.212914             299.757056               
-9939.000000             0.417142                 223.635890               26764.295051             299.761406               
-9938.000000             0.417193                 223.642380               26768.377692             299.765756               
-9937.000000             0.417245                 223.648870               26772.460837             299.770105               
-9936.000000             0.417296                 223.655360               26776.544486             299.774455               
-9935.000000             0.417348                 223.661850               26780.628640             299.778804               
-9934.000000             0.417400                 223.668340               26784.713298             299.783153               
-9933.000000             0.417451                 223.674830               26788.798461             299.787503               
-9932.000000             0.417503                 223.681320               26792.884128             299.791852               
-9931.000000             0.417554                 223.687810               26796.970300             299.796201               
-9930.000000             0.417606                 223.694300               26801.056976             299.800550               
-9929.000000             0.417657                 223.700790               26805.144157             299.804899               
-9928.000000             0.417709                 223.707280               26809.231843             299.809248               
-9927.000000             0.417760                 223.713770               26813.320034             299.813597               
-9926.000000             0.417812                 223.720260               26817.408729             299.817946               
-9925.000000             0.417864                 223.726750               26821.497929             299.822294               
-9924.000000             0.417915                 223.733240               26825.587634             299.826643               
-9923.000000             0.417967                 223.739730               26829.677844             299.830992               
-9922.000000             0.418018                 223.746220               26833.768559             299.835340               
-9921.000000             0.418070                 223.752710               26837.859779             299.839689               
-9920.000000             0.418122                 223.759200               26841.951503             299.844037               
-9919.000000             0.418173                 223.765690               26846.043734             299.848385               
-9918.000000             0.418225                 223.772180               26850.136469             299.852734               
-9917.000000             0.418276                 223.778670               26854.229709             299.857082               
-9916.000000             0.418328                 223.785160               26858.323455             299.861430               
-9915.000000             0.418380                 223.791650               26862.417706             299.865778               
-9914.000000             0.418431                 223.798140               26866.512463             299.870126               
-9913.000000             0.418483                 223.804630               26870.607724             299.874474               
-9912.000000             0.418535                 223.811120               26874.703492             299.878822               
-9911.000000             0.418586                 223.817610               26878.799765             299.883170               
-9910.000000             0.418638                 223.824100               26882.896543             299.887518               
-9909.000000             0.418690                 223.830590               26886.993827             299.891866               
-9908.000000             0.418741                 223.837080               26891.091617             299.896213               
-9907.000000             0.418793                 223.843570               26895.189912             299.900561               
-9906.000000             0.418845                 223.850060               26899.288713             299.904908               
-9905.000000             0.418896                 223.856550               26903.388020             299.909256               
-9904.000000             0.418948                 223.863040               26907.487832             299.913603               
-9903.000000             0.419000                 223.869530               26911.588151             299.917951               
-9902.000000             0.419051                 223.876020               26915.688976             299.922298               
-9901.000000             0.419103                 223.882510               26919.790306             299.926645               
-9900.000000             0.419155                 223.889000               26923.892143             299.930992               
-9899.000000             0.419207                 223.895490               26927.994485             299.935340               
-9898.000000             0.419258                 223.901980               26932.097334             299.939687               
-9897.000000             0.419310                 223.908470               26936.200689             299.944034               
-9896.000000             0.419362                 223.914960               26940.304550             299.948380               
-9895.000000             0.419414                 223.921450               26944.408917             299.952727               
-9894.000000             0.419465                 223.927940               26948.513791             299.957074               
-9893.000000             0.419517                 223.934430               26952.619171             299.961421               
-9892.000000             0.419569                 223.940920               26956.725058             299.965767               
-9891.000000             0.419620                 223.947410               26960.831451             299.970114               
-9890.000000             0.419672                 223.953900               26964.938350             299.974461               
-9889.000000             0.419724                 223.960390               26969.045756             299.978807               
-9888.000000             0.419776                 223.966880               26973.153669             299.983154               
-9887.000000             0.419828                 223.973370               26977.262088             299.987500               
-9886.000000             0.419879                 223.979860               26981.371014             299.991846               
-9885.000000             0.419931                 223.986350               26985.480447             299.996192               
-9884.000000             0.419983                 223.992840               26989.590387             300.000539               
-9883.000000             0.420035                 223.999330               26993.700833             300.004885               
-9882.000000             0.420086                 224.005820               26997.811786             300.009231               
-9881.000000             0.420138                 224.012310               27001.923246             300.013577               
-9880.000000             0.420190                 224.018800               27006.035214             300.017923               
-9879.000000             0.420242                 224.025290               27010.147688             300.022268               
-9878.000000             0.420294                 224.031780               27014.260669             300.026614               
-9877.000000             0.420346                 224.038270               27018.374158             300.030960               
-9876.000000             0.420397                 224.044760               27022.488153             300.035306               
-9875.000000             0.420449                 224.051250               27026.602656             300.039651               
-9874.000000             0.420501                 224.057740               27030.717666             300.043997               
-9873.000000             0.420553                 224.064230               27034.833184             300.048342               
-9872.000000             0.420605                 224.070720               27038.949209             300.052688               
-9871.000000             0.420657                 224.077210               27043.065741             300.057033               
-9870.000000             0.420708                 224.083700               27047.182780             300.061378               
-9869.000000             0.420760                 224.090190               27051.300328             300.065723               
-9868.000000             0.420812                 224.096680               27055.418382             300.070069               
-9867.000000             0.420864                 224.103170               27059.536945             300.074414               
-9866.000000             0.420916                 224.109660               27063.656015             300.078759               
-9865.000000             0.420968                 224.116150               27067.775593             300.083104               
-9864.000000             0.421020                 224.122640               27071.895678             300.087449               
-9863.000000             0.421072                 224.129130               27076.016272             300.091793               
-9862.000000             0.421123                 224.135620               27080.137373             300.096138               
-9861.000000             0.421175                 224.142110               27084.258982             300.100483               
-9860.000000             0.421227                 224.148600               27088.381099             300.104827               
-9859.000000             0.421279                 224.155090               27092.503724             300.109172               
-9858.000000             0.421331                 224.161580               27096.626857             300.113517               
-9857.000000             0.421383                 224.168070               27100.750498             300.117861               
-9856.000000             0.421435                 224.174560               27104.874647             300.122205               
-9855.000000             0.421487                 224.181050               27108.999305             300.126550               
-9854.000000             0.421539                 224.187540               27113.124470             300.130894               
-9853.000000             0.421591                 224.194030               27117.250144             300.135238               
-9852.000000             0.421643                 224.200520               27121.376327             300.139582               
-9851.000000             0.421695                 224.207010               27125.503017             300.143927               
-9850.000000             0.421747                 224.213500               27129.630216             300.148271               
-9849.000000             0.421799                 224.219990               27133.757924             300.152614               
-9848.000000             0.421851                 224.226480               27137.886140             300.156958               
-9847.000000             0.421902                 224.232970               27142.014865             300.161302               
-9846.000000             0.421954                 224.239460               27146.144098             300.165646               
-9845.000000             0.422006                 224.245950               27150.273840             300.169990               
-9844.000000             0.422058                 224.252440               27154.404090             300.174333               
